Test01 (for a high frequency) input parameters:
0.0D0 0.0D0  5.D0  1.D0   ! ZF, ZP, V, H 
 3  75                    ! TAG, NRH

! ZF:  vertical coordinate of the field point
! ZP:  vertical coordinate of the source point
!  V:  wave number in deep water,i.e., w^2/g 
!  H:  water depth (h>0)
!TAG:  a flag to exclude the Rankine terms or not
!      TAG=1, 1/r+1/r1 is excluded; 
!      TAG=2, 1/r is excluded; 
!      TAG=3, nothing excluded.
!
!NRH:  the number of records in the following example

Exact values:
    R/H      Re(G)_Newman(1985)       Im(G)_Newman(1985)
  0.0800   0.3068446397781372E+02   0.3014969825744629E+02
  0.1600   0.6510348320007324E+01   0.2656677961349487E+02
  0.2400  -0.5347850322723389E+01   0.2106726169586182E+02
  0.3200  -0.1216115832328796E+02   0.1429390788078308E+02
  0.4000  -0.1536150932312012E+02   0.7025348544120789E+01
  0.4800  -0.1557096600532532E+02   0.7516464684158564E-01
  0.5600  -0.1335815191268921E+02  -0.5812134146690369E+01
  0.6400  -0.9394277930259705E+01  -0.1005409598350525E+02
  0.7200  -0.4447846710681915E+01  -0.1229983806610107E+02
  0.8000   0.6808377057313919E+00  -0.1246702790260315E+02
  0.8800   0.5246351361274719E+01  -0.1074197173118591E+02
  0.9600   0.8643414378166199E+01  -0.7543620467185974E+01
  1.0400   0.1047474741935730E+02  -0.3457273840904236E+01
  1.1200   0.1059060096740723E+02   0.8520393073558807E+00
  1.2000   0.9094301462173462E+01   0.4733960628509521E+01
  1.2800   0.6313475370407104E+01   0.7641597390174866E+01
  1.3600   0.2741706669330597E+01   0.9202454686164856E+01
  1.4400  -0.1040390059351921E+01   0.9262079000473022E+01
  1.5200  -0.4452986419200897E+01   0.7895120382308960E+01
  1.6000  -0.7001006603240967E+01   0.5383304357528687E+01
  1.6800  -0.8342414498329163E+01   0.2164581418037415E+01
  1.7600  -0.8331561684608459E+01  -0.1238298490643501E+01
  1.8400  -0.7032157778739929E+01  -0.4298660159111023E+01
  1.9200  -0.4699046313762665E+01  -0.6564316153526306E+01
  2.0000  -0.1732507050037384E+01  -0.7721933126449585E+01
  2.0800   0.1387364119291306E+01  -0.7638556361198425E+01
  2.1600   0.4175724983215332E+01  -0.6374765634536743E+01
  2.2400   0.6216229796409607E+01  -0.4168522953987122E+01
  2.3200   0.7221525907516479E+01  -0.1392948329448700E+01
  2.4000   0.7072356939315796E+01   0.1504762470722198E+01
  2.4800   0.5830132961273193E+01   0.4073712825775146E+01
  2.5600   0.3721784949302673E+01   0.5927992463111877E+01
  2.6400   0.1100061088800430E+01   0.6803466081619263E+01
  2.7200  -0.1614156812429428E+01   0.6594449877738953E+01
  2.8000  -0.3998171389102936E+01   0.5365203619003296E+01
  2.8800  -0.5692270398139954E+01   0.3335270881652832E+01
  2.9600  -0.6453143954277039E+01   0.8414763957262039E+00
  3.0400  -0.6188072562217712E+01  -0.1716913878917694E+01
  3.1200  -0.4965228140354156E+01  -0.3941244482994080E+01
  3.2000  -0.2999057769775391E+01  -0.5494750738143921E+01
  3.2800  -0.6135804206132889E+00  -0.6152908802032471E+01
  3.3600   0.1810230761766434E+01  -0.5835285186767578E+01
  3.4400   0.3894599080085754E+01  -0.4614500403404236E+01
  3.5200   0.5323166251182556E+01  -0.2701472043991089E+01
  3.6000   0.5888535380363464E+01  -0.4096337780356407E+00
  3.6800   0.5521874427795410E+01   0.1895805895328522E+01
  3.7600   0.4300545752048492E+01   0.3855510950088501E+01
  3.8400   0.2432998418807983E+01   0.5171538591384888E+01
  3.9200   0.2237595617771149E+00   0.5652195215225220E+01
  4.0000  -0.1975796967744827E+01   0.5239611268043518E+01
  4.0800  -0.3822870254516602E+01   0.4015989601612091E+01
  4.1600  -0.5036235451698303E+01   0.2188121527433395E+01
  4.2400  -0.5438771247863770E+01   0.5282456055283546E-01
  4.3200  -0.4982951879501343E+01  -0.2050812244415283E+01
  4.4000  -0.3755845427513123E+01  -0.3794974684715271E+01
  4.4800  -0.1963097155094147E+01  -0.4913842380046844E+01
  4.5600   0.1051767077296972E+00  -0.5243827700614929E+01
  4.6400   0.2121030688285828E+01  -0.4747218191623688E+01
  4.7200   0.3770351111888885E+01  -0.3515872955322266E+01
  4.8000   0.4801583886146545E+01  -0.1754699200391769E+01
  4.8800   0.5063824653625488E+01   0.2521569468080997E+00
  4.9600   0.4528681039810181E+01   0.2186885625123978E+01
  5.0400   0.3292695581912994E+01   0.3748096525669098E+01
  5.1200   0.1560329198837280E+01   0.4697513580322266E+01
  5.2000  -0.3896557167172432E+00   0.4896180331707001E+01
  5.2800  -0.2248806506395340E+01   0.4324564933776855E+01
  5.3600  -0.3727560937404633E+01   0.3083792626857758E+01
  5.4400  -0.4600153565406799E+01   0.1378042995929718E+01
  5.5200  -0.4738897979259491E+01  -0.5188136920332909E+00
  5.6000  -0.4132711291313171E+01  -0.2307048738002777E+01
  5.6800  -0.2887161076068878E+01  -0.3708189725875854E+01
  5.7600  -0.1206312105059624E+01  -0.4508274197578430E+01
  5.8400   0.6405346840620041E+00  -0.4590336084365845E+01
  5.9200   0.2361787706613541E+01  -0.3951357901096344E+01
  6.0000   0.3689493536949158E+01  -0.2701192200183868E+01

    R/H      Re(GR)_Newman(1985)       Im(GR)_Newman(1985)
  0.0800  -0.4997480869293213E+03  -0.3077491819858551E+02
  0.1600  -0.1947625875473022E+03  -0.5790521502494812E+02
  0.2400  -0.1117683887481689E+03  -0.7822577953338623E+02
  0.3200  -0.6100065708160400E+02  -0.8946449756622314E+02
  0.4000  -0.2019187808036804E+02  -0.9053241610527039E+02
  0.4800   0.1379521638154984E+02  -0.8165134191513062E+02
  0.5600   0.4012340605258942E+02  -0.6430292129516602E+02
  0.6400   0.5735768079757690E+02  -0.4100732505321503E+02
  0.7200   0.6461710333824158E+02  -0.1496471315622330E+02
  0.8000   0.6202879548072815E+02   0.1038918867707253E+02
  0.8800   0.5083355903625488E+02   0.3185027539730072E+02
  0.9600   0.3325697183609009E+02   0.4687069952487946E+02
  1.0400   0.1221321597695351E+02   0.5388242602348328E+02
  1.1200  -0.9095484763383865E+01   0.5247664451599121E+02
  1.2000  -0.2761702239513397E+02   0.4341699182987213E+02
  1.2800  -0.4085855185985565E+02   0.2848865687847137E+02
  1.3600  -0.4720737636089325E+02   0.1020867377519608E+02
  1.4400  -0.4611922204494476E+02  -0.8557835221290588E+01
  1.5200  -0.3814977109432220E+02  -0.2501836419105530E+02
  1.6000  -0.2482895404100418E+02  -0.3684943318367004E+02
  1.6800  -0.8400114625692368E+01  -0.4251242876052856E+02
  1.7600   0.8534810692071915E+01  -0.4144557714462280E+02
  1.8400   0.2340963631868362E+02  -0.3410775959491730E+02
  1.9200   0.3407019972801208E+02  -0.2187199443578720E+02
  2.0000   0.3907713294029236E+02  -0.6788676232099533E+01
  2.0800   0.3789387345314026E+02   0.8743407577276230E+01
  2.1600   0.3093480169773102E+02   0.2234656959772110E+02
  2.2400   0.1947087347507477E+02   0.3201917409896851E+02
  2.3200   0.5410407483577728E+01   0.3642347455024719E+02
  2.4000  -0.9008450061082840E+01   0.3506534695625305E+02
  2.4800  -0.2156591415405273E+02   0.2834239304065704E+02
  2.5600  -0.3039555549621582E+02   0.1745647788047791E+02
  2.6400  -0.3425660729408264E+02   0.4207771643996239E+01
  2.7200  -0.3270433843135834E+02  -0.9296155720949173E+01
  2.8000  -0.2613517343997955E+02  -0.2096946984529495E+02
  2.8800  -0.1570315212011337E+02  -0.2906546294689178E+02
  2.9600  -0.3123324364423752E+01  -0.3243410289287567E+02
  3.0400   0.9604950994253159E+01  -0.3068209886550903E+02
  3.1200   0.2051153182983398E+02  -0.2421380430459976E+02
  3.2000   0.2795651257038116E+02  -0.1414933800697327E+02
  3.2800   0.3087396621704102E+02  -0.2135171554982662E+01
  3.3600   0.2892190515995026E+02   0.9921298921108246E+01
  3.4400   0.2251794934272766E+02   0.2015119343996048E+02
  3.5200   0.1275785565376282E+02   0.2701074182987213E+02
  3.6000   0.1231383811682463E+01   0.2951213419437408E+02
  3.6800  -0.1023352667689323E+02   0.2736347019672394E+02
  3.7600  -0.1985795050859451E+02   0.2099892646074295E+02
  3.8400  -0.2618567347526550E+02   0.1149644628167152E+02
  3.9200  -0.2830149233341217E+02   0.3980788402259350E+00
  4.0000  -0.2596199512481689E+02  -0.1053809896111488E+02
  4.0800  -0.1961976289749146E+02  -0.1961417198181152E+02
  4.1600  -0.1033994480967522E+02  -0.2545398473739624E+02
  4.2400   0.3766504116356373E+00  -0.2721044719219208E+02
  4.3200   0.1083403378725052E+02  -0.2468674480915070E+02
  4.4000   0.1940795779228210E+02  -0.1835500001907349E+02
  4.4800   0.2479644119739532E+02  -0.9270887076854706E+01
  4.5600   0.2621620297431946E+02   0.1100576017051935E+01
  4.6400   0.2351522147655487E+02   0.1111972928047180E+02
  4.7200   0.1718561798334122E+02   0.1922982633113861E+02
  4.8000   0.8276195079088211E+01   0.2419787943363190E+02
  4.8800  -0.1779820024967194E+01   0.2530080080032349E+02
  4.9600  -0.1139400526881218E+02   0.2242960184812546E+02
  5.0400  -0.1907241791486740E+02   0.1609644144773483E+02
  5.1200  -0.2364650815725327E+02   0.7345209270715714E+01
  5.2000  -0.2445020377635956E+02  -0.2419480308890343E+01
  5.2800  -0.2141579240560532E+02  -0.1165648624300957E+02
  5.3600  -0.1507545262575150E+02  -0.1893033683300018E+02
  5.4400  -0.6469348073005676E+01  -0.2313337922096252E+02
  5.5200   0.3023826889693737E+01  -0.2365356832742691E+02
  5.6000   0.1190699189901352E+02  -0.2046281993389130E+02
  5.6800   0.1879956573247910E+02  -0.1411304175853729E+02
  5.7600   0.2265148311853409E+02  -0.5641804635524750E+01
  5.8400   0.2290229052305222E+02   0.3596312925219536E+01
  5.9200   0.1956197023391724E+02   0.1214531585574150E+02
  6.0000   0.1320168226957321E+02   0.1867672801017761E+02

    R/H      Re(Gz)_Newman(1985)       Im(Gz)_Newman(1985)
  0.0800   0.1534223437309265E+03   0.1507485151290894E+03
  0.1600   0.3255175352096558E+02   0.1328339219093323E+03
  0.2400  -0.2673923969268799E+02   0.1053363323211670E+03
  0.3200  -0.6080578565597534E+02   0.7146955132484436E+02
  0.4000  -0.7680754065513611E+02   0.3512674868106842E+02
  0.4800  -0.7785484194755554E+02   0.3758232807740569E+00
  0.5600  -0.6679076552391052E+02  -0.2906067669391632E+02
  0.6400  -0.4697139859199524E+02  -0.5027049183845520E+02
  0.7200  -0.2223923802375793E+02  -0.6149920225143433E+02
  0.8000   0.3404188901185989E+01  -0.6233515143394470E+02
  0.8800   0.2623175978660583E+02  -0.5370987057685852E+02
  0.9600   0.4321708083152771E+02  -0.3771810829639435E+02
  1.0400   0.5237374305725098E+02  -0.1728637218475342E+02
  1.1200   0.5295301079750061E+02   0.4260197281837463E+01
  1.2000   0.4547151625156403E+02   0.2366980761289597E+02
  1.2800   0.3156737983226776E+02   0.3820799291133881E+02
  1.3600   0.1370853632688522E+02   0.4601228237152100E+02
  1.4400  -0.5201951041817665E+01   0.4631040096282959E+02
  1.5200  -0.2226493656635284E+02   0.3947560787200928E+02
  1.6000  -0.3500503897666931E+02   0.2691652774810791E+02
  1.6800  -0.4171208143234253E+02   0.1082290858030319E+02
  1.7600  -0.4165781736373901E+02  -0.6191493570804596E+01
  1.8400  -0.3516079485416412E+02  -0.2149330526590347E+02
  1.9200  -0.2349523603916168E+02  -0.3282158672809601E+02
  2.0000  -0.8662536740303040E+01  -0.3860967159271240E+02
  2.0800   0.6936821341514587E+01  -0.3819279074668884E+02
  2.1600   0.2087862789630890E+02  -0.3187383413314819E+02
  2.2400   0.3108115196228027E+02  -0.2084261775016785E+02
  2.3200   0.3610763847827911E+02  -0.6964743137359619E+01
  2.4000   0.3536179363727570E+02   0.7523813843727112E+01
  2.4800   0.2915067076683044E+02   0.2036856710910797E+02
  2.5600   0.1860892772674561E+02   0.2963996827602386E+02
  2.6400   0.5500306561589241E+01   0.3401733636856079E+02
  2.7200  -0.8070785552263260E+01   0.3297225534915924E+02
  2.8000  -0.1999085992574692E+02   0.2682602405548096E+02
  2.8800  -0.2846135795116425E+02   0.1667635738849640E+02
  2.9600  -0.3226572573184967E+02   0.4207382723689079E+01
  3.0400  -0.3094036877155304E+02  -0.8584570884704590E+01
  3.1200  -0.2482614517211914E+02  -0.1970622688531876E+02
  3.2000  -0.1499529033899307E+02  -0.2747375667095184E+02
  3.2800  -0.3067902661859989E+01  -0.3076454997062683E+02
  3.3600   0.9051156044006348E+01  -0.2917643189430237E+02
  3.4400   0.1947299838066101E+02  -0.2307250648736954E+02
  3.5200   0.2661583423614502E+02  -0.1350736320018768E+02
  3.6000   0.2944268286228180E+02  -0.2048169262707233E+01
  3.6800   0.2760937511920929E+02   0.9479030966758728E+01
  3.7600   0.2150273323059082E+02   0.1927755922079086E+02
  3.8400   0.1216499432921410E+02   0.2585769891738892E+02
  3.9200   0.1118797995150089E+01   0.2826098203659058E+02
  4.0000  -0.9878987073898315E+01   0.2619806230068207E+02
  4.0800  -0.1911435425281525E+02   0.2007995247840881E+02
  4.1600  -0.2518118023872375E+02   0.1094060987234116E+02
  4.2400  -0.2719385921955109E+02   0.2641228493303061E+00
  4.3200  -0.2491476386785507E+02  -0.1025406271219254E+02
  4.4000  -0.1877923011779785E+02  -0.1897487640380859E+02
  4.4800  -0.9815488010644913E+01  -0.2456921637058258E+02
  4.5600   0.5258836317807436E+00  -0.2621914446353912E+02
  4.6400   0.1060515567660332E+02  -0.2373609542846680E+02
  4.7200   0.1885175853967667E+02  -0.1757936775684357E+02
  4.8000   0.2400792390108109E+02  -0.8773497492074966E+01
  4.8800   0.2531912922859192E+02   0.1260785013437271E+01
  4.9600   0.2264340966939926E+02   0.1093443036079407E+02
  5.0400   0.1646348088979721E+02   0.1874048560857773E+02
  5.1200   0.7801647484302521E+01   0.2348757237195969E+02
  5.2000  -0.1948278956115246E+01   0.2448090612888336E+02
  5.2800  -0.1124403476715088E+02   0.2162282913923264E+02
  5.3600  -0.1863780766725540E+02   0.1541896611452103E+02
  5.4400  -0.2300077229738235E+02   0.6890216469764709E+01
  5.5200  -0.2369449436664581E+02  -0.2594068832695484E+01
  5.6000  -0.2066355943679810E+02  -0.1153524592518806E+02
  5.6800  -0.1443580836057663E+02  -0.1854095160961151E+02
  5.7600  -0.6031561642885208E+01  -0.2254137396812439E+02
  5.8400   0.3202674165368080E+01  -0.2295168489217758E+02
  5.9200   0.1180894076824188E+02  -0.1975679248571396E+02
  6.0000   0.1844747066497803E+02  -0.1350596398115158E+02
